Wavelength	Intensities	
nm	a.u.	
179.22	1874.2	
179.44	1873.9	
179.65	1874.6	
179.86	1873.2	
180.08	1895.7	
180.29	4801.1	
180.51	3489.1	
180.72	5584.1	
180.94	6574.7	
181.15	3145.7	
181.37	3102.7	
181.58	5479.7	
181.79	5749.3	
182.01	3295.9	
182.22	3556	
182.44	5692	
182.65	4777.9	
182.87	4517.1	
183.08	3944.4	
183.29	5978	
183.51	4965	
183.72	3549.1	
183.94	5166.3	
184.15	5364.3	
184.37	5365	
184.58	3151.8	
184.79	4307.6	
185.01	4933.6	
185.22	5685.8	
185.44	4506.9	
185.65	3827.7	
185.86	5204.6	
186.08	4810.7	
186.29	3074	
186.51	3316.3	
186.72	5001.1	
186.94	5897.5	
187.15	3839.3	
187.36	3922.5	
187.58	7565.9	
187.79	5360.9	
188.01	4102.8	
188.22	6410.1	
188.43	6509.8	
188.65	5638.1	
188.86	3309.5	
189.08	3900	
189.29	5122	
189.5	5212.1	
189.72	3680.9	
189.93	3728.7	
190.15	5874.9	
190.36	7066.9	
190.57	4028.4	
190.79	3897.3	
191	5924.8	
191.22	5966.4	
191.43	4016.7	
191.64	3270.6	
191.86	6142.5	
192.07	5900.9	
192.29	3429.7	
192.5	3700.7	
192.71	5869.5	
192.93	5108.3	
193.14	3620.1	
193.35	3723.9	
193.57	5118.6	
193.78	5884.5	
194	2938.8	
194.21	3583.3	
194.42	4876.2	
194.64	5316.5	
194.85	3969	
195.07	4541.7	
195.28	5401.2	
195.49	4643.4	
195.71	4901.5	
195.92	3381.9	
196.13	5578.7	
196.35	5692.7	
196.56	5156.1	
196.78	3964.2	
196.99	6917.4	
197.2	6552.1	
197.42	4457.7	
197.63	3986	
197.84	4825	
198.06	5545.9	
198.27	3638.6	
198.48	4846.9	
198.7	5089.2	
198.91	5266	
199.13	3932.1	
199.34	3986	
199.55	5697.4	
199.77	4593.6	
199.98	3521.1	
200.19	4033.8	
200.41	5192.3	
200.62	4937.7	
200.83	4144.4	
201.05	4499.4	
201.26	5290.6	
201.47	4968.4	
201.69	3562.8	
201.9	3378.5	
202.11	5298.1	
202.33	6248.4	
202.54	3770.3	
202.76	4214	
202.97	5399.1	
203.18	5442.1	
203.4	4146.5	
203.61	4082.3	
203.82	5393.7	
204.04	5017.5	
204.25	4009.2	
204.46	3987.4	
204.68	5388.9	
204.89	5638.1	
205.1	3871.3	
205.32	3396.9	
205.53	5744.6	
205.74	5868.8	
205.96	2964.8	
206.17	4054.3	
206.38	5675.6	
206.6	5844.9	
206.81	4512.4	
207.02	3622.9	
207.24	5621	
207.45	5967.8	
207.66	3762.1	
207.88	3243.3	
208.09	5497.4	
208.3	5332.9	
208.52	3444	
208.73	3863.8	
208.94	5307	
209.15	6050.4	
209.37	3756.7	
209.58	3932.1	
209.79	5898.8	
210.01	5098.1	
210.22	3066.5	
210.43	3160	
210.65	5391.6	
210.86	5762.3	
211.07	3792.2	
211.29	3461.1	
211.5	5677	
211.71	5317.9	
211.93	3528.7	
212.14	3477.5	
212.35	5304.2	
212.56	5520	
212.78	3985.3	
212.99	3274.7	
213.2	6306.4	
213.42	5110.4	
213.63	3578.5	
213.84	3852.2	
214.06	4728.1	
214.27	4860.5	
214.48	3760.8	
214.69	4073.4	
214.91	6021.7	
215.12	6067.4	
215.33	4132.1	
215.55	4484.4	
215.76	6572.6	
215.97	5731.6	
216.18	3907.5	
216.4	3791.5	
216.61	5018.9	
216.82	5819	
217.04	3474	
217.25	3678.8	
217.46	5984.8	
217.67	5741.8	
217.89	3138.9	
218.1	3261.7	
218.31	5418.9	
218.53	5554.8	
218.74	3652.2	
218.95	3545	
219.16	5363.6	
219.38	6227.9	
219.59	3603.1	
219.8	4288.4	
220.01	6894.8	
220.23	5359.5	
220.44	4723.3	
220.65	3482.9	
220.87	5450.3	
221.08	5980.8	
221.29	3233.1	
221.5	4347.8	
221.72	7267.6	
221.93	5057.1	
222.14	4033.8	
222.35	4715.8	
222.57	5360.9	
222.78	5668.8	
222.99	3854.3	
223.2	4063.9	
223.42	5638.7	
223.63	5751.4	
223.84	2923.1	
224.05	2904.7	
224.27	6804	
224.48	6223.8	
224.69	4713.1	
224.9	3960.1	
225.12	5552.7	
225.33	5289.9	
225.54	3182.5	
225.75	3528.7	
225.97	4944.5	
226.18	5205.9	
226.39	3807.9	
226.6	3564.1	
226.82	5081.7	
227.03	4939	
227.24	4029	
227.45	3292.5	
227.67	5692.7	
227.88	6274.3	
228.09	4459.8	
228.3	4499.4	
228.52	5733.6	
228.73	5281	
228.94	3675.4	
229.15	3308.8	
229.36	5257.8	
229.58	5208.7	
229.79	3729.4	
230	4383.3	
230.21	6368.5	
230.43	5443.5	
230.64	3981.9	
230.85	4110.3	
231.06	5757.5	
231.28	5771.2	
231.49	3313.6	
231.7	3962.1	
231.91	5632.6	
232.12	5374.6	
232.34	3412.6	
232.55	3860.4	
232.76	5922	
232.97	5489.2	
233.18	3476.8	
233.4	3923.9	
233.61	5515.2	
233.82	5143.1	
234.03	3647.4	
234.25	3565.5	
234.46	7372	
234.67	5376.6	
234.88	4085.7	
235.09	3556.6	
235.31	5709.7	
235.52	5236	
235.73	4002.4	
235.94	3304.7	
236.15	4997	
236.37	6480.5	
236.58	3528	
236.79	3812	
237	5640.1	
237.21	4837.3	
237.43	4130.8	
237.64	3206.4	
237.85	9660.3	
238.06	4946.5	
238.27	4151.9	
238.48	3336.8	
238.7	5684.5	
238.91	5201.8	
239.12	3746.4	
239.33	3842	
239.54	5119.2	
239.76	5257.8	
239.97	3749.1	
240.18	3858.4	
240.39	6683.9	
240.6	5596.4	
240.82	3975.8	
241.03	3266.5	
241.24	5315.2	
241.45	6159.6	
241.66	3468.6	
241.87	4097.3	
242.09	6123.4	
242.3	6438.8	
242.51	4128	
242.72	3863.2	
242.93	5825.1	
243.14	5271.5	
243.36	4437.9	
243.57	4840.7	
243.78	6152.1	
243.99	5692.7	
244.2	3837.9	
244.41	3446.7	
244.63	4904.9	
244.84	5679	
245.05	4034.5	
245.26	3872	
245.47	5608.7	
245.68	5857.9	
245.9	5076.9	
246.11	4000.4	
246.32	5193.6	
246.53	5580	
246.74	6206	
246.95	3196.9	
247.16	4842.1	
247.38	5408.7	
247.59	3145.7	
247.8	3885.7	
248.01	5035.3	
248.22	5255.1	
248.43	3475.4	
248.64	3767.6	
248.86	4701.5	
249.07	5133.6	
249.28	3353.2	
249.49	3891.1	
249.7	5878.4	
249.91	6016.2	
250.12	3161.4	
250.34	3295.2	
250.55	5438	
250.76	5337	
250.97	3963.5	
251.18	3976.5	
251.39	5988.9	
251.6	5556.1	
251.81	4021.5	
252.03	4024.3	
252.24	5137.7	
252.45	5872.2	
252.66	3358	
252.87	4279.6	
253.08	5386.8	
253.29	7038.9	
253.5	3353.9	
253.72	4687.1	
253.93	5201.2	
254.14	6356.2	
254.35	3623.5	
254.56	3723.9	
254.77	5547.3	
254.98	4953.4	
255.19	3599.6	
255.41	4668.7	
255.62	5431.2	
255.83	5976	
256.04	4149.2	
256.25	3980.6	
256.46	6629.3	
256.67	5042.1	
256.88	3906.2	
257.09	4398.4	
257.31	5018.2	
257.52	5042.8	
257.73	5015.5	
257.94	3586.7	
258.15	5215.5	
258.36	5352.7	
258.57	4587.4	
258.78	2926.5	
258.99	5754.8	
259.2	5196.4	
259.41	3659.7	
259.63	3754.6	
259.84	6222.4	
260.05	6593.1	
260.26	4780.6	
260.47	3528	
260.68	5943.9	
260.89	5317.2	
261.1	4429.8	
261.31	3480.9	
261.52	5950.7	
261.73	6281.1	
261.95	4736.3	
262.16	4137.6	
262.37	6019	
262.58	6191	
262.79	4701.5	
263	3764.2	
263.21	5447.6	
263.42	4859.1	
263.63	3750.5	
263.84	3672	
264.05	5782.8	
264.26	6208.8	
264.47	4587.4	
264.69	4111	
264.9	6062.7	
265.11	5533.6	
265.32	3545.7	
265.53	3614	
265.74	5457.2	
265.95	4762.2	
266.16	3919.1	
266.37	4316.4	
266.58	5449	
266.79	5196.4	
267	3605.8	
267.21	3372.3	
267.42	4947.9	
267.63	5341.1	
267.84	3786	
268.06	3237.8	
268.27	5793.7	
268.48	6079.1	
268.69	3712.3	
268.9	4375.8	
269.11	6036.7	
269.32	4858.5	
269.53	3784.6	
269.74	3555.3	
269.95	5656.5	
270.16	4719.2	
270.37	3844.7	
270.58	4413.4	
270.79	5207.3	
271	5868.1	
271.21	4145.8	
271.42	3840.6	
271.63	5487.9	
271.84	5000.5	
272.05	3096.5	
272.26	3413.3	
272.47	5373.2	
272.68	5538.4	
272.89	3666.5	
273.11	4250.2	
273.32	5121.3	
273.53	6216.3	
273.74	4204.5	
273.95	4022.2	
274.16	5945.9	
274.37	5406.6	
274.58	4136.9	
274.79	3348.4	
275	5433.3	
275.21	6026.5	
275.42	5016.2	
275.63	4351.9	
275.84	5606	
276.05	7049.1	
276.26	4005.8	
276.47	3757.3	
276.68	5225.7	
276.89	6337.1	
277.1	4342.4	
277.31	3366.2	
277.52	5611.4	
277.73	5765.7	
277.94	3264.5	
278.15	3693.2	
278.36	5552.7	
278.57	4957.4	
278.78	3635.8	
278.99	4177.2	
279.2	4977.2	
279.41	4997.7	
279.62	4806.6	
279.83	3394.2	
280.04	6546.7	
280.25	4909	
280.46	4852.3	
280.67	3816	
280.88	5022.3	
281.09	6016.9	
281.3	4047.5	
281.51	5096	
281.72	5094.7	
281.93	5887.9	
282.14	3583.3	
282.35	3839.3	
282.56	5811.5	
282.77	5754.1	
282.98	3698.6	
283.19	4547.9	
283.4	7148.8	
283.61	5329.5	
283.82	3392.8	
284.03	4816.1	
284.24	5461.2	
284.45	6009.4	
284.66	4719.9	
284.87	4535.6	
285.08	5864	
285.29	6033.3	
285.5	3270.6	
285.71	3766.2	
285.92	5972.6	
286.12	6580.8	
286.33	4709	
286.54	3742.3	
286.75	5849	
286.96	5221.6	
287.17	3406.5	
287.38	4587.4	
287.59	4987.5	
287.8	4939	
288.01	3776.5	
288.22	4335.5	
288.43	5867.4	
288.64	4898.7	
288.85	4416.1	
289.06	4251.6	
289.27	6082.5	
289.48	6246.3	
289.69	4768.4	
289.9	4304.8	
290.11	5980.8	
290.32	5088.5	
290.53	4547.9	
290.74	4091.2	
290.94	5776.6	
291.15	5862.7	
291.36	3631	
291.57	4309.6	
291.78	5143.8	
291.99	4764.3	
292.2	3444.7	
292.41	4176.5	
292.62	5913.9	
292.83	5634	
293.04	5144.5	
293.25	3460.4	
293.46	5119.9	
293.67	5952.8	
293.88	3606.5	
294.09	3418.1	
294.29	4924.7	
294.5	5520	
294.71	3842	
294.92	3733.4	
295.13	5154.7	
295.34	6457.2	
295.55	3220.1	
295.76	3302	
295.97	5787.6	
296.18	6403.3	
296.39	3410.6	
296.6	3606.5	
296.81	5483.8	
297.01	5743.2	
297.22	3722.5	
297.43	3535.5	
297.64	4994.3	
297.85	5016.8	
298.06	2977.1	
298.27	3198.2	
298.48	5411.4	
298.69	5085.8	
298.9	3875.4	
299.11	3551.2	
299.31	4916.5	
299.52	4894.6	
299.73	4115.1	
299.94	4128.7	
300.15	5314.5	
300.36	4980.7	
300.57	4134.2	
300.78	4095.3	
300.99	5269.4	
301.2	5472.9	
301.4	3536.2	
301.61	3865.2	
301.82	5636.7	
302.03	5746.6	
302.24	4354	
302.45	3387.3	
302.66	5605.3	
302.87	6067.4	
303.08	3627.6	
303.29	4874.8	
303.49	5088.5	
303.7	5401.9	
303.91	3216.7	
304.12	4669.4	
304.33	4878.9	
304.54	5482.4	
304.75	3678.8	
304.96	3480.2	
305.16	5627.1	
305.37	6336.4	
305.58	3108.8	
305.79	3279.5	
306	5714.5	
306.21	4809.3	
306.42	3560.1	
306.63	5539.8	
306.83	5210.7	
307.04	5981.4	
307.25	3962.8	
307.46	3888.4	
307.67	4588.8	
307.88	5786.2	
308.09	3521.1	
308.29	3689.1	
308.5	5447.6	
308.71	5956.9	
308.92	3836.5	
309.13	3460.4	
309.34	5249.6	
309.55	5276.3	
309.75	4385.4	
309.96	4088.4	
310.17	5776	
310.38	5091.3	
310.59	4280.9	
310.8	3435.1	
311.01	5168.4	
311.21	5247.6	
311.42	3403.7	
311.63	3504.1	
311.84	5099.4	
312.05	5461.2	
312.26	3978.5	
312.46	4384.7	
312.67	5206.6	
312.88	4925.4	
313.09	3457.7	
313.3	3365.5	
313.51	6149.4	
313.71	6386.9	
313.92	3482.9	
314.13	3694.5	
314.34	5590.3	
314.55	5270.8	
314.76	4438.6	
314.96	3904.8	
315.17	5402.5	
315.38	5748.6	
315.59	3435.1	
315.8	3341.6	
316.01	6183.5	
316.21	6249	
316.42	3300	
316.63	3861.1	
316.84	5223.7	
317.05	6035.4	
317.26	4091.2	
317.46	3663.1	
317.67	5349.3	
317.88	5791.7	
318.09	4362.2	
318.3	3284.3	
318.5	5095.3	
318.71	5676.3	
318.92	5646.2	
319.13	4041.3	
319.34	5807.4	
319.54	5982.1	
319.75	3235.8	
319.96	3093.1	
320.17	5756.8	
320.38	5850.4	
320.58	3140.2	
320.79	3816	
321	5881.1	
321.21	6002.6	
321.42	3818.8	
321.62	3172.3	
321.83	4966.3	
322.04	5378	
322.25	3648.8	
322.46	3504.1	
322.66	5455.1	
322.87	5698.1	
323.08	4304.1	
323.29	3413.3	
323.5	6374	
323.7	4986.1	
323.91	4753.3	
324.12	4244.8	
324.33	5410.1	
324.53	5744.6	
324.74	4050.9	
324.95	4261.8	
325.16	4767.7	
325.37	5186.1	
325.57	3510.2	
325.78	3538.9	
325.99	5421	
326.2	4864.6	
326.4	4911.7	
326.61	3206.4	
326.82	5336.3	
327.03	5470.8	
327.24	4913.8	
327.44	4693.9	
327.65	5566.4	
327.86	4546.5	
328.07	4063.2	
328.27	3364.1	
328.48	6021	
328.69	4936.3	
328.9	5045.5	
329.1	3762.1	
329.31	5261.9	
329.52	6164.4	
329.73	3461.7	
329.93	3915.7	
330.14	5357.5	
330.35	5601.9	
330.56	5681.1	
330.76	4332.8	
330.97	5171.1	
331.18	5531.6	
331.39	3867.9	
331.59	3140.2	
331.8	5932.3	
332.01	6030.6	
332.22	3560.7	
332.42	4108.2	
332.63	5477.6	
332.84	5042.1	
333.05	3879.5	
333.25	3530.7	
333.46	5169.8	
333.67	5299.5	
333.88	3637.9	
334.08	4061.1	
334.29	7064.8	
334.5	5992.4	
334.7	3376.4	
334.91	4994.3	
335.12	4906.3	
335.33	5802.6	
335.53	3816.7	
335.74	5677.7	
335.95	5111.7	
336.16	5011.4	
336.36	3970.3	
336.57	4422.2	
336.78	4890.5	
336.98	5958.9	
337.19	4711	
337.4	3787.4	
337.61	6517.3	
337.81	4938.3	
338.02	3547.8	
338.23	4636.6	
338.43	6109.8	
338.64	5030.5	
338.85	3504.1	
339.05	4597.7	
339.26	6231.3	
339.47	4779.3	
339.68	3494.5	
339.88	5148.6	
340.09	5631.2	
340.3	5844.2	
340.5	4068.6	
340.71	3088.3	
340.92	4846.9	
341.13	6086.6	
341.33	3418.1	
341.54	4158.1	
341.75	5605.3	
341.95	5244.2	
342.16	3926	
342.37	4212	
342.57	4957.4	
342.78	5268.1	
342.99	4407.9	
343.19	3112.9	
343.4	5783.5	
343.61	5672.9	
343.81	3694.5	
344.02	3432.4	
344.23	5787.6	
344.43	6143.9	
344.64	4367	
344.85	4243.4	
345.06	5633.3	
345.26	5948	
345.47	4008.6	
345.68	4745.8	
345.88	4763.6	
346.09	5776	
346.3	4136.9	
346.5	3087	
346.71	5384.1	
346.92	5025.7	
347.12	3165.5	
347.33	3987.4	
347.54	5866.7	
347.74	6324.8	
347.95	3973.7	
348.16	2971.6	
348.36	5134.9	
348.57	4960.9	
348.78	4019.5	
348.98	4277.5	
349.19	5353.4	
349.39	4816.1	
349.6	3183.9	
349.81	3575.1	
350.01	5545.2	
350.22	5053	
350.43	3812.6	
350.63	4595.6	
350.84	5432.6	
351.05	5106.3	
351.25	3502	
351.46	3188	
351.67	5842.9	
351.87	5070.1	
352.08	3719.1	
352.29	4310.3	
352.49	5790.3	
352.7	5898.8	
352.9	3391.4	
353.11	4253.6	
353.32	6418.3	
353.52	5101.5	
353.73	3338.9	
353.94	4261.8	
354.14	5608.7	
354.35	5427.8	
354.55	3389.4	
354.76	3786.7	
354.97	5541.8	
355.17	5380.7	
355.38	3235.8	
355.59	4536.9	
355.79	4987.5	
356	5399.1	
356.2	3759.4	
356.41	3295.9	
356.62	4748.6	
356.82	5234.6	
357.03	4033.8	
357.24	3637.9	
357.44	4982.7	
357.65	5130.2	
357.85	4872.8	
358.06	3811.3	
358.27	4753.3	
358.47	4958.1	
358.68	3168.2	
358.88	4003.1	
359.09	5500.8	
359.3	5874.3	
359.5	4600.4	
359.71	4148.5	
359.91	6303	
360.12	5640.8	
360.33	4006.5	
360.53	4444.8	
360.74	4940.4	
360.94	5011.4	
361.15	4186	
361.36	3421.5	
361.56	5715.9	
361.77	5150.6	
361.97	4588.8	
362.18	3623.5	
362.38	5709.7	
362.59	4803.2	
362.8	3409.2	
363	3232.4	
363.21	4545.8	
363.41	5195.7	
363.62	3845.4	
363.83	4820.9	
364.03	5311.7	
364.24	6268.8	
364.44	4958.1	
364.65	4810	
364.85	5078.3	
365.06	4909.7	
365.27	3487.7	
365.47	3535.5	
365.68	6090	
365.88	5000.5	
366.09	3889.1	
366.29	3515	
366.5	5312.4	
366.71	5737.7	
366.91	4858.5	
367.12	4022.9	
367.32	6268.8	
367.53	5547.9	
367.73	3942.3	
367.94	4921.3	
368.14	5561.6	
368.35	6383.5	
368.56	3939.6	
368.76	3343.7	
368.97	5578	
369.17	7275.8	
369.38	3448.1	
369.58	3713	
369.79	4702.1	
369.99	5980.8	
370.2	4732.9	
370.4	3799.7	
370.61	5349.3	
370.82	6463.4	
371.02	3722.5	
371.23	3124.5	
371.43	4584.7	
371.64	5827.8	
371.84	3731.4	
372.05	4836.6	
372.25	7152.9	
372.46	5558.9	
372.66	3656.3	
372.87	3608.5	
373.07	5598.5	
373.28	7083.9	
373.48	4631.8	
373.69	4322.6	
373.9	5068	
374.1	5059.8	
374.31	4550.6	
374.51	4074.1	
374.72	5902.2	
374.92	4801.8	
375.13	4655	
375.33	3953.9	
375.54	5418.9	
375.74	4900.1	
375.95	3965.6	
376.15	5147.2	
376.36	5413.5	
376.56	5216.9	
376.77	3975.8	
376.97	4420.9	
377.18	6365.8	
377.38	5468.8	
377.59	4687.1	
377.79	3450.8	
378	5260.5	
378.2	5638.1	
378.41	3516.4	
378.61	3411.9	
378.82	5698.1	
379.02	4859.1	
379.23	3639.2	
379.43	4690.5	
379.64	5732.3	
379.84	5386.2	
380.05	3452.2	
380.25	3375.1	
380.46	5467.4	
380.66	5058.5	
380.87	4813.4	
381.07	5141.8	
381.28	6141.9	
381.48	5469.4	
381.69	3510.9	
381.89	3624.9	
382.1	4514.4	
382.3	5690.6	
382.51	4661.9	
382.71	5457.2	
382.91	5569.8	
383.12	6008.7	
383.32	3885.7	
383.53	4104.8	
383.73	5375.2	
383.94	5156.8	
384.14	4014.7	
384.35	3216	
384.55	5098.8	
384.76	5571.8	
384.96	3910.3	
385.17	4249.5	
385.37	5547.9	
385.58	4856.4	
385.78	4225.6	
385.98	3160.7	
386.19	5070.8	
386.39	5427.8	
386.6	3654.3	
386.8	3891.8	
387.01	5542.5	
387.21	5524.7	
387.42	4268.6	
387.62	4810	
387.83	4919.2	
388.03	5434.6	
388.23	3857.7	
388.44	4659.1	
388.64	4536.3	
388.85	4582.7	
389.05	4199	
389.26	4787.5	
389.46	6396.5	
389.67	5789.6	
389.87	4153.3	
390.07	4280.9	
390.28	5042.1	
390.48	4689.2	
390.69	3437.2	
390.89	3745.7	
391.1	4868.7	
391.3	5738.4	
391.5	4876.2	
391.71	5543.2	
391.91	5479.7	
392.12	6438.1	
392.32	4969.7	
392.53	4190.1	
392.73	4925.4	
392.93	5126.7	
393.14	3839.9	
393.34	4861.2	
393.55	5673.6	
393.75	5147.9	
393.95	3907.5	
394.16	3872.7	
394.36	4929.5	
394.57	5583.4	
394.77	3381.2	
394.98	3837.9	
395.18	4819.6	
395.38	5032.5	
395.59	4607.2	
395.79	3508.9	
396	4880.3	
396.2	5341.1	
396.4	4527.4	
396.61	4230.4	
396.81	5497.4	
397.02	4851	
397.22	4538.3	
397.42	4567	
397.63	5460.6	
397.83	4702.8	
398.04	3463.8	
398.24	3915	
398.44	5241.4	
398.65	4382	
398.85	3295.2	
399.05	3388	
399.26	4703.5	
399.46	6249.7	
399.67	3669.3	
399.87	3471.3	
400.07	4985.4	
400.28	5325.4	
400.48	3515	
400.69	4512.4	
400.89	5439.4	
401.09	5901.6	
401.3	3398.9	
401.5	4433.9	
401.7	6081.1	
401.91	6290	
402.11	3731.4	
402.32	3956.7	
402.52	5479	
402.72	5446.9	
402.93	4180.6	
403.13	3153.9	
403.33	6266.1	
403.54	5167	
403.74	3943	
403.94	4759.5	
404.15	5149.3	
404.35	6277.7	
404.56	3690.4	
404.76	5493.3	
404.96	5518.6	
405.17	5352.7	
405.37	4891.2	
405.57	4153.3	
405.78	5584.1	
405.98	5051.7	
406.18	3682.2	
406.39	4511.7	
406.59	5509.7	
406.79	5150	
407	3497.2	
407.2	3643.3	
407.4	5502.2	
407.61	5664.7	
407.81	3508.9	
408.01	5318.6	
408.22	4454.3	
408.42	6215.6	
408.62	4435.2	
408.83	3837.2	
409.03	4902.2	
409.23	4752.7	
409.44	3986	
409.64	4175.1	
409.84	5720	
410.05	5530.2	
410.25	3910.9	
410.45	3713	
410.66	4967.7	
410.86	7420.5	
411.06	3986	
411.27	3898	
411.47	7005.4	
411.67	5098.1	
411.88	4106.2	
412.08	4280.9	
412.28	5694.7	
412.49	6109.1	
412.69	3823.6	
412.89	3804.4	
413.09	5945.9	
413.3	5761.6	
413.5	3895.9	
413.7	3485	
413.91	5073.5	
414.11	5920.7	
414.31	3629.7	
414.52	4018.1	
414.72	5548.6	
414.92	5366.4	
415.12	3623.5	
415.33	4166.3	
415.53	5726.8	
415.73	5970.5	
415.94	4489.1	
416.14	3911.6	
416.34	4847.5	
416.55	4634.6	
416.75	5063.3	
416.95	4495.3	
417.15	5671.5	
417.36	6463.4	
417.56	5123.3	
417.76	4289.8	
417.97	6044.9	
418.17	5693.4	
418.37	3847.5	
418.57	3917.8	
418.78	5548.6	
418.98	5237.3	
419.18	4749.2	
419.38	4704.9	
419.59	5230.5	
419.79	4977.9	
419.99	3768.9	
420.2	4245.4	
420.4	5750.7	
420.6	5947.3	
420.8	3704.8	
421.01	3631.7	
421.21	5535.7	
421.41	5780.1	
421.61	4104.8	
421.82	3827	
422.02	5076.2	
422.22	6053.1	
422.42	4539	
422.63	4351.9	
422.83	5224.4	
423.03	6301.6	
423.23	4327.4	
423.44	3353.9	
423.64	5285.1	
423.84	5079	
424.04	3760.8	
424.25	3498.6	
424.45	6277.7	
424.65	6172.6	
424.85	3295.9	
425.06	3885.7	
425.26	6180.8	
425.46	4838.7	
425.66	4353.3	
425.87	4033.1	
426.07	5988.3	
426.27	5873.6	
426.47	4227.7	
426.67	3577.8	
426.88	6419	
427.08	5791.7	
427.28	4320.5	
427.48	3547.1	
427.69	4848.2	
427.89	5348.6	
428.09	4351.9	
428.29	3573.7	
428.5	6040.1	
428.7	5588.9	
428.9	3392.8	
429.1	3967.6	
429.3	5456.5	
429.51	5847	
429.71	3801.7	
429.91	4502.1	
430.11	5692.7	
430.31	5886.5	
430.52	3997	
430.72	4199	
430.92	6293.4	
431.12	5755.5	
431.32	3622.2	
431.53	4040	
431.73	4712.4	
431.93	6349.4	
432.13	3605.8	
432.33	3418.7	
432.54	5146.5	
432.74	5428.5	
432.94	3306.8	
433.14	4360.8	
433.34	5666	
433.55	5132.9	
433.75	4280.3	
433.95	5938.4	
434.15	5378.6	
434.35	5073.5	
434.56	3538.2	
434.76	3045.3	
434.96	5338.4	
435.16	5526.1	
435.36	3315.7	
435.56	4406.5	
435.77	4952.7	
435.97	5108.3	
436.17	5083.7	
436.37	4276.2	
436.57	4953.4	
436.78	4855.7	
436.98	5205.3	
437.18	4906.3	
437.38	5477.6	
437.58	5105.6	
437.78	5117.2	
437.99	3721.8	
438.19	5651	
438.39	6399.9	
438.59	3679.5	
438.79	3298.6	
438.99	6204.7	
439.2	5076.9	
439.4	3362.1	
439.6	3340.2	
439.8	5395	
440	6351.4	
440.2	4189.5	
440.4	4293.9	
440.61	5667.4	
440.81	6156.2	
441.01	3377.1	
441.21	4158.7	
441.41	5930.2	
441.61	5643.5	
441.81	4392.9	
442.02	5418.9	
442.22	6413.6	
442.42	5709.1	
442.62	3324.5	
442.82	3429	
443.02	5971.2	
443.22	5085.8	
443.43	3751.2	
443.63	3364.1	
443.83	5037.3	
444.03	4949.9	
444.23	4401.1	
444.43	4102.1	
444.63	5198.4	
444.83	6375.3	
445.04	3417.4	
445.24	4625	
445.44	5579.3	
445.64	5697.4	
445.84	4285.7	
446.04	4177.2	
446.24	5046.9	
446.44	6012.8	
446.65	3490.4	
446.85	3805.1	
447.05	5218.2	
447.25	5954.1	
447.45	3946.4	
447.65	3430.3	
447.85	5351.3	
448.05	5076.9	
448.25	4292.5	
448.46	4143.7	
448.66	5304.9	
448.86	5098.8	
449.06	3222.8	
449.26	4284.4	
449.46	5614.8	
449.66	4795.7	
449.86	3745.7	
450.06	3756	
450.26	4950.6	
450.47	5440.1	
450.67	4092.5	
450.87	4377.9	
451.07	5535.7	
451.27	5332.9	
451.47	3398.3	
451.67	3884.3	
451.87	4967	
452.07	6184.9	
452.27	3536.8	
452.47	3584.6	
452.67	5310.4	
452.88	5700.2	
453.08	3057.6	
453.28	4882.4	
453.48	6356.2	
453.68	5226.4	
453.88	3420.8	
454.08	3685.7	
454.28	5490.6	
454.48	5233.9	
454.68	4085.7	
454.88	4681	
455.08	5657.9	
455.28	5299.5	
455.48	3353.9	
455.68	3822.9	
455.89	5971.2	
456.09	5642.2	
456.29	3545	
456.49	3536.2	
456.69	5784.8	
456.89	5160.9	
457.09	3923.2	
457.29	4244.8	
457.49	5407.3	
457.69	5479	
457.89	3650.2	
458.09	3248.1	
458.29	5012.1	
458.49	5805.3	
458.69	4048.2	
458.89	3510.2	
459.09	5918.6	
459.29	6064.7	
459.49	3648.8	
459.69	4334.9	
459.9	5558.9	
460.1	5003.9	
460.3	3589.4	
460.5	3353.2	
460.7	5502.2	
460.9	5153.4	
461.1	3003	
461.3	4175.8	
461.5	5991.7	
461.7	5633.3	
461.9	3261.7	
462.1	3801	
462.3	5041.4	
462.5	5582.1	
462.7	3247.4	
462.9	3386	
463.1	6628.6	
463.3	6149.4	
463.5	3528	
463.7	4186	
463.9	5139	
464.1	5426.4	
464.3	3451.5	
464.5	3761.4	
464.7	5696.1	
464.9	5253.7	
465.1	4964.3	
465.3	3988.1	
465.5	6024.4	
465.7	5872.2	
465.9	4197	
466.1	4154.6	
466.3	5604.6	
466.5	5568.4	
466.7	4749.9	
466.9	3758	
467.1	5480.4	
467.3	6371.2	
467.5	4643.4	
467.7	3604.4	
467.9	6526.2	
468.1	7348.8	
468.3	4382	
468.5	4741	
468.7	5301.5	
468.9	5279.7	
469.1	3812	
469.3	4463.2	
469.5	7155.6	
469.7	4888.5	
469.9	4351.3	
470.1	3564.1	
470.3	5288.5	
470.5	5322	
470.7	4760.8	
470.9	3766.2	
471.1	5047.6	
471.3	5717.2	
471.5	3492.5	
471.69	5372.5	
471.89	5088.5	
472.09	4635.9	
472.29	4320.5	
472.49	4695.3	
472.69	4840	
472.89	5594.4	
473.09	3413.3	
473.29	3693.9	
473.49	5034.6	
473.69	5150	
473.89	4558.8	
474.09	3850.9	
474.29	6401.3	
474.49	6074.3	
474.69	4476.2	
474.89	3958	
475.09	5169.8	
475.29	5165.7	
475.49	3420.1	
475.69	3595.6	
475.88	6709.1	
476.08	5528.2	
476.28	3330	
476.48	3892.5	
476.68	5960.3	
476.88	5872.2	
477.08	3749.1	
477.28	3941	
477.48	5380.7	
477.68	5981.4	
477.88	3496.6	
478.08	3832.4	
478.28	6154.8	
478.48	5468.8	
478.67	3892.5	
478.87	3435.1	
479.07	5945.9	
479.27	5597.8	
479.47	4115.1	
479.67	4059.1	
479.87	5858.6	
480.07	6344.6	
480.27	3383.9	
480.47	4917.2	
480.67	5556.1	
480.87	6107.7	
481.06	3658.4	
481.26	4432.5	
481.46	5501.5	
481.66	5429.8	
481.86	4065.9	
482.06	5054.4	
482.26	5287.9	
482.46	6223.1	
482.66	3921.2	
482.86	3583.3	
483.05	5552.7	
483.25	4981.3	
483.45	6356.9	
483.65	4019.5	
483.85	5117.9	
484.05	5349.3	
484.25	4390.8	
484.45	4762.9	
484.65	6199.9	
484.84	6058.6	
485.04	3840.6	
485.24	3780.6	
485.44	6435.4	
485.64	4884.4	
485.84	3111.5	
486.04	4403.8	
486.24	5153.4	
486.44	5540.4	
486.63	3098.6	
486.83	3847.5	
487.03	4969.1	
487.23	5157.5	
487.43	3178.4	
487.63	5424.4	
487.83	5169.1	
488.02	6091.3	
488.22	3913.7	
488.42	4549.9	
488.62	6036	
488.82	4936.3	
489.02	3711.6	
489.22	3601	
489.41	5884.5	
489.61	5504.3	
489.81	3469.3	
490.01	3404.4	
490.21	5758.2	
490.41	6399.2	
490.61	3379.1	
490.8	3521.1	
491	5244.8	
491.2	4847.5	
491.4	4070	
491.6	3312.9	
491.8	5368.4	
491.99	5524.7	
492.19	3181.2	
492.39	3518.4	
492.59	5836	
492.79	5819	
492.99	4235.2	
493.18	3341.6	
493.38	5857.2	
493.58	6384.2	
493.78	3903.4	
493.98	3558.7	
494.18	5465.3	
494.37	4873.5	
494.57	4015.4	
494.77	3889.1	
494.97	5487.2	
495.17	5697.4	
495.37	3421.5	
495.56	3738.9	
495.76	5752.1	
495.96	5478.3	
496.16	4532.8	
496.36	3471.3	
496.55	5610.8	
496.75	5148.6	
496.95	3807.2	
497.15	3686.3	
497.35	5603.2	
497.54	5513.8	
497.74	3476.1	
497.94	5070.1	
498.14	6240.2	
498.34	5978	
498.53	3157.3	
498.73	3928	
498.93	4866	
499.13	5418.9	
499.33	3607.2	
499.52	4132.1	
499.72	5341.1	
499.92	5705	
500.12	3272	
500.32	3588	
500.51	5646.2	
500.71	5356.8	
500.91	4337.6	
501.11	3936.9	
501.31	5452.4	
501.5	6025.1	
501.7	4586.1	
501.9	3616	
502.1	5408	
502.29	5651	
502.49	3966.2	
502.69	4477.5	
502.89	5614.8	
503.09	5546.6	
503.28	3233.7	
503.48	3332.7	
503.68	4954.7	
503.88	4956.1	
504.07	4281.6	
504.27	3805.1	
504.47	5293.3	
504.67	5545.9	
504.86	4179.2	
505.06	3947.1	
505.26	5114.5	
505.46	6774.7	
505.65	3817.4	
505.85	4129.4	
506.05	5129.5	
506.25	5545.2	
506.44	3302.7	
506.64	4281.6	
506.84	5018.9	
507.04	5985.5	
507.23	3572.3	
507.43	4154.6	
507.63	6926.9	
507.83	5313.1	
508.02	4123.9	
508.22	3793.5	
508.42	7208.2	
508.62	5019.6	
508.81	4027.7	
509.01	4473.4	
509.21	5043.5	
509.4	5317.2	
509.6	4195.6	
509.8	3585.3	
510	5242.8	
510.19	6538.5	
510.39	3592.1	
510.59	3649.5	
510.79	5028.4	
510.98	6290	
511.18	3713.7	
511.38	3824.2	
511.57	5890.6	
511.77	5612.8	
511.97	4498	
512.17	3501.3	
512.36	5779.4	
512.56	5758.2	
512.76	3551.2	
512.95	3336.1	
513.15	5926.8	
513.35	4616.8	
513.55	4320.5	
513.74	3553.9	
513.94	5841.5	
514.14	5207.3	
514.33	4458.4	
514.53	4188.8	
514.73	5234.6	
514.92	5378.6	
515.12	3672.7	
515.32	3494.5	
515.51	5507	
515.71	5939.8	
515.91	5254.4	
516.11	3525.9	
516.3	7029.3	
516.5	5080.3	
516.7	4092.5	
516.89	4633.2	
517.09	5185.5	
517.29	5138.4	
517.48	4421.6	
517.68	3829	
517.88	4900.8	
518.07	5524.7	
518.27	4261.8	
518.47	3296.5	
518.66	6012.8	
518.86	4786.8	
519.06	3239.2	
519.25	3651.5	
519.45	5106.3	
519.65	6417.7	
519.84	4220.9	
520.04	4824.3	
520.24	6733	
520.43	5688.6	
520.63	4042.7	
520.83	3782.6	
521.02	4982	
521.22	5638.1	
521.42	4346.5	
521.61	4771.1	
521.81	5210.7	
522.01	5402.5	
522.2	4089.8	
522.4	3939.6	
522.6	5812.1	
522.79	4700.1	
522.99	3927.3	
523.18	3218	
523.38	5425.8	
523.58	5358.2	
523.77	4997.7	
523.97	3131.3	
524.17	7072.3	
524.36	6295.5	
524.56	4296.6	
524.76	3936.9	
524.95	5195.7	
525.15	4945.2	
525.34	3657.7	
525.54	3679.5	
525.74	5436.7	
525.93	4640.7	
526.13	4748.6	
526.33	3560.1	
526.52	5717.2	
526.72	5216.9	
526.91	4699.4	
527.11	3923.2	
527.31	5651.7	
527.5	6079.1	
527.7	3805.8	
527.89	2998.9	
528.09	4748.6	
528.29	5147.2	
528.48	4247.5	
528.68	3945.1	
528.87	5535	
529.07	5646.9	
529.27	3812	
529.46	3394.8	
529.66	5233.9	
529.85	5584.1	
530.05	3231	
530.25	3967.6	
530.44	6408.1	
530.64	5157.5	
530.83	3613.3	
531.03	3773.7	
531.23	5521.3	
531.42	5418.2	
531.62	4400.4	
531.81	3688.4	
532.01	5483.8	
532.21	5881.1	
532.4	3373.7	
532.6	3652.2	
532.79	6309.1	
532.99	5375.2	
533.18	3604.4	
533.38	4584	
533.58	4970.4	
533.77	5730.9	
533.97	3403.7	
534.16	4324.6	
534.36	5905	
534.55	4957.4	
534.75	4426.3	
534.95	3566.2	
535.14	5669.5	
535.34	4986.1	
535.53	3299.3	
535.73	5167.7	
535.92	6219	
536.12	5184.8	
536.31	3428.3	
536.51	4429.8	
536.71	5509.7	
536.9	5088.5	
537.1	3548.4	
537.29	3719.1	
537.49	5861.3	
537.68	4970.4	
537.88	4007.9	
538.07	3302.7	
538.27	5107	
538.46	6105	
538.66	3110.9	
538.86	3569.6	
539.05	5219.6	
539.25	5614.8	
539.44	3758.7	
539.64	3454.9	
539.83	5066	
540.03	6052.4	
540.22	3345.7	
540.42	3591.5	
540.61	5406	
540.81	5395.7	
541	4026.3	
541.2	4593.6	
541.39	4965.6	
541.59	5255.1	
541.78	4224.3	
541.98	3510.2	
542.18	4654.4	
542.37	4728.1	
542.57	3915.7	
542.76	4293.2	
542.96	4887.8	
543.15	5516.5	
543.35	4004.5	
543.54	3373.7	
543.74	5810.1	
543.93	5350.7	
544.13	3991.5	
544.32	5114.5	
544.52	5791.7	
544.71	5048.2	
544.91	3181.9	
545.1	4415.4	
545.3	5059.8	
545.49	5636.7	
545.69	3205.8	
545.88	3773	
546.08	6599.9	
546.27	6225.1	
546.47	4255	
546.66	3574.4	
546.86	5935.7	
547.05	6481.8	
547.24	3765.5	
547.44	3626.3	
547.63	5007.3	
547.83	5990.3	
548.02	4007.2	
548.22	4250.9	
548.41	4888.5	
548.61	6133.7	
548.8	3615.3	
549	3608.5	
549.19	5543.2	
549.39	5749.3	
549.58	3419.4	
549.78	3920.5	
549.97	5884.5	
550.17	5423.7	
550.36	4857.8	
550.55	5735	
550.75	5436.7	
550.94	6353.5	
551.14	3599	
551.33	4089.1	
551.53	4861.2	
551.72	5767.8	
551.92	4050.9	
552.11	3809.2	
552.31	5851.7	
552.5	5946.6	
552.69	5542.5	
552.89	3554.6	
553.08	5798.5	
553.28	5513.1	
553.47	3872.7	
553.67	4984.8	
553.86	6467.5	
554.06	4866.7	
554.25	3196.9	
554.44	3710.2	
554.64	7197.9	
554.83	6637.5	
555.03	3689.1	
555.22	4108.2	
555.42	6048.3	
555.61	5731.6	
555.8	3927.3	
556	4188.1	
556.19	4919.2	
556.39	6259.3	
556.58	3933.5	
556.78	3979.2	
556.97	5679	
557.16	5407.3	
557.36	5147.9	
557.55	3599.6	
557.75	4780.6	
557.94	6394.4	
558.13	3766.9	
558.33	3502	
558.52	6244.3	
558.72	5167.7	
558.91	3609.9	
559.1	3905.5	
559.3	4950.6	
559.49	4819.6	
559.69	3282.9	
559.88	4255	
560.07	5764.3	
560.27	6102.3	
560.46	4392.2	
560.66	4597	
560.85	5521.3	
561.04	4830.5	
561.24	3665.2	
561.43	3898.6	
561.63	5031.9	
561.82	5381.4	
562.01	5086.5	
562.21	4155.3	
562.4	5732.9	
562.59	6585.6	
562.79	3971.7	
562.98	3646.1	
563.18	5563	
563.37	7004.1	
563.56	4478.2	
563.76	3549.1	
563.95	5092.6	
564.14	5094.7	
564.34	3962.1	
564.53	3700.7	
564.73	5627.8	
564.92	5823.1	
565.11	4077.5	
565.31	3491.8	
565.5	6101.6	
565.69	5098.8	
565.89	3704.1	
566.08	3925.3	
566.27	5943.2	
566.47	6273.6	
566.66	4475.5	
566.85	3280.2	
567.05	5579.3	
567.24	5087.8	
567.44	3526.6	
567.63	4906.3	
567.82	5790.3	
568.02	5545.9	
568.21	3575.8	
568.4	3884.3	
568.6	5378.6	
568.79	5403.9	
568.98	3433.1	
569.18	3563.5	
569.37	5318.6	
569.56	7320.1	
569.76	3835.2	
569.95	4737.6	
570.14	5759.6	
570.34	5573.2	
570.53	3411.2	
570.72	3447.4	
570.91	6129.6	
571.11	5350	
571.3	3895.9	
571.49	4814.1	
571.69	5331.5	
571.88	4981.3	
572.07	4353.3	
572.27	4468.7	
572.46	4915.1	
572.65	5956.2	
572.85	3583.3	
573.04	3976.5	
573.23	6078.4	
573.43	5415.5	
573.62	3392.1	
573.81	3989.4	
574	5375.2	
574.2	5227.1	
574.39	3628.3	
574.58	3792.8	
574.78	6075	
574.97	5367	
575.16	4096.6	
575.36	4259.8	
575.55	5703.6	
575.74	5884.5	
575.93	3294.5	
576.13	4234.5	
576.32	5190.2	
576.51	5663.3	
576.71	3688.4	
576.9	4907.6	
577.09	5995.8	
577.28	5544.5	
577.48	4022.2	
577.67	3250.1	
577.86	5248.3	
578.05	5438.7	
578.25	3720.5	
578.44	3898.6	
578.63	5345.9	
578.83	6410.8	
579.02	3224.9	
579.21	4615.4	
579.4	5521.3	
579.6	5158.8	
579.79	3904.8	
579.98	6025.1	
580.17	5765.7	
580.37	5815.5	
580.56	3406.5	
580.75	4063.9	
580.94	6297.5	
581.14	6137.1	
581.33	4541	
581.52	3501.3	
581.71	5626.5	
581.91	6331.6	
582.1	3238.5	
582.29	3797.6	
582.48	5309	
582.68	5184.8	
582.87	4229.7	
583.06	3861.1	
583.25	5550.7	
583.45	4945.8	
583.64	4410	
583.83	5146.5	
584.02	5165.7	
584.21	5542.5	
584.41	4468.7	
584.6	3761.4	
584.79	5271.5	
584.98	5909.1	
585.18	3285.6	
585.37	3326.6	
585.56	4888.5	
585.75	5614.8	
585.94	3534.1	
586.14	4138.9	
586.33	6234	
586.52	5303.6	
586.71	4044.7	
586.91	3777.8	
587.1	4874.2	
587.29	5820.3	
587.48	3827.7	
587.67	3652.9	
587.87	5687.2	
588.06	5767.1	
588.25	4974.5	
588.44	4375.8	
588.63	5494	
588.83	6058.6	
589.02	3928.7	
589.21	3835.2	
589.4	5468.1	
589.59	5267.4	
589.78	3381.2	
589.98	3640.6	
590.17	5109	
590.36	5640.1	
590.55	3161.4	
590.74	4141.7	
590.94	7051.2	
591.13	5663.3	
591.32	3819.5	
591.51	3431	
591.7	6034	
591.89	5594.4	
592.09	3485	
592.28	3913	
592.47	4950.6	
592.66	6546	
592.85	3362.1	
593.05	3657	
593.24	5437.4	
593.43	6108.4	
593.62	3648.8	
593.81	4088.4	
594	5455.8	
594.19	5633.3	
594.39	3578.5	
594.58	3579.2	
594.77	5768.4	
594.96	6351.4	
595.15	3584.6	
595.34	4131.4	
595.54	5849	
595.73	5018.9	
595.92	3055.6	
596.11	4055	
596.3	6260	
596.49	5068	
596.68	3943.7	
596.88	4302.1	
597.07	6055.2	
597.26	4879.6	
597.45	3453.6	
597.64	4606.6	
597.83	5145.2	
598.02	5761.6	
598.22	3553.9	
598.41	4156	
598.6	5533.6	
598.79	5079	
598.98	3534.8	
599.17	4482.3	
599.36	5616.2	
599.55	6653.2	
599.74	5528.2	
599.94	5248.3	
600.13	6140.5	
600.32	4993.6	
600.51	3316.3	
600.7	3489.1	
600.89	6762.4	
601.08	6737.1	
601.27	3234.4	
601.47	4163.5	
601.66	5993	
601.85	6650.4	
602.04	3846.1	
602.23	4205.8	
602.42	5112.4	
602.61	5810.1	
602.8	3842	
602.99	3666.5	
603.18	5491.3	
603.37	5670.8	
603.57	4248.9	
603.76	4820.2	
603.95	6483.2	
604.14	5905.7	
604.33	3753.2	
604.52	3973.1	
604.71	5610.8	
604.9	5350.7	
605.09	4810.7	
605.28	4388.1	
605.47	6268.8	
605.66	5909.1	
605.86	4204.5	
606.05	3725.3	
606.24	6227.2	
606.43	4861.9	
606.62	4069.3	
606.81	4794.3	
607	6154.8	
607.19	5463.3	
607.38	3566.9	
607.57	3694.5	
607.76	5233.9	
607.95	4800.4	
608.14	4184.7	
608.33	4756.1	
608.52	5261.2	
608.72	6059.9	
608.91	3400.3	
609.1	3433.1	
609.29	5388.9	
609.48	5002.5	
609.67	4344.4	
609.86	3530.7	
610.05	5036.6	
610.24	5412.8	
610.43	3330.7	
610.62	3106.1	
610.81	6481.1	
611	6263.4	
611.19	3497.9	
611.38	4127.3	
611.57	5623.7	
611.76	6941.9	
611.95	3302	
612.14	3302.7	
612.33	5453.7	
612.52	5073.5	
612.71	3733.4	
612.9	3134.1	
613.09	4715.1	
613.28	6854.6	
613.47	3627.6	
613.66	4478.9	
613.85	5588.2	
614.04	5167	
614.24	3678.2	
614.43	3052.2	
614.62	5696.1	
614.81	5679.7	
615	4170.3	
615.19	4209.9	
615.38	5071.5	
615.57	5324	
615.76	4037.2	
615.95	4938.3	
616.14	5730.9	
616.33	5391.6	
616.52	4315.8	
616.71	4543.8	
616.9	5706.3	
617.09	5543.2	
617.28	3695.2	
617.47	4957.4	
617.66	4849.6	
617.85	4909	
618.04	4493.2	
618.22	4024.3	
618.41	5113.8	
618.6	5851.7	
618.79	3837.9	
618.98	3570.3	
619.17	6156.9	
619.36	4700.8	
619.55	3614.7	
619.74	3792.2	
619.93	5468.8	
620.12	4954.7	
620.31	4159.4	
620.5	4354.7	
620.69	5984.8	
620.88	6292.7	
621.07	5003.2	
621.26	4042	
621.45	5530.9	
621.64	5580	
621.83	4179.9	
622.02	3381.9	
622.21	5573.9	
622.4	5359.5	
622.59	4631.8	
622.78	4433.9	
622.97	4982.7	
623.16	5956.2	
623.35	4040.6	
623.54	3312.2	
623.72	5156.1	
623.91	5311.7	
624.1	4265.9	
624.29	3090.4	
624.48	6341.2	
624.67	5708.4	
624.86	4117.1	
625.05	3306.1	
625.24	6431.3	
625.43	4931.5	
625.62	5865.4	
625.81	3565.5	
626	5948	
626.19	5157.5	
626.38	4234.5	
626.56	3695.9	
626.75	5011.4	
626.94	5729.5	
627.13	4225	
627.32	3099.3	
627.51	5623	
627.7	6892.8	
627.89	3232.4	
628.08	4286.4	
628.27	4922.6	
628.46	5124	
628.65	3492.5	
628.83	3161.4	
629.02	5684.5	
629.21	4990.9	
629.4	3898	
629.59	4079.6	
629.78	4941.1	
629.97	5821.7	
630.16	4074.1	
630.35	3637.9	
630.54	6249.7	
630.72	5892.7	
630.91	3586	
631.1	4111.6	
631.29	5476.3	
631.48	5579.3	
631.67	4197	
631.86	3732.8	
632.05	5137.7	
632.24	5195	
632.42	3404.4	
632.61	4001.7	
632.8	5250.3	
632.99	4900.1	
633.18	3953.9	
633.37	4390.2	
633.56	5435.3	
633.75	5318.6	
633.93	3924.6	
634.12	3644	
634.31	6207.4	
634.5	5817.6	
634.69	3723.2	
634.88	4214.7	
635.07	5244.8	
635.25	5870.8	
635.44	4610.7	
635.63	4725.3	
635.82	5119.9	
636.01	4696.7	
636.2	4505.5	
636.39	4035.9	
636.57	6242.9	
636.76	5874.9	
636.95	3565.5	
637.14	4855.7	
637.33	5555.5	
637.52	6589.7	
637.7	3371	
637.89	4285.7	
638.08	5187.5	
638.27	6568.5	
638.46	4336.9	
638.65	4767.7	
638.83	6685.9	
639.02	5117.2	
639.21	4274.1	
639.4	4726	
639.59	5528.8	
639.78	5186.1	
639.96	3629.7	
640.15	3715	
640.34	5410.1	
640.53	5651	
640.72	3457	
640.91	3781.9	
641.09	4994.3	
641.28	6235.4	
641.47	3732.8	
641.66	4524.6	
641.85	5553.4	
642.03	5975.3	
642.22	4357.4	
642.41	3864.5	
642.6	5096	
642.79	4614.8	
642.97	3721.8	
643.16	4346.5	
643.35	5089.9	
643.54	4926.7	
643.73	3633.8	
643.91	4420.9	
644.1	4851	
644.29	5386.2	
644.48	3796.3	
644.67	3842	
644.85	5165.7	
645.04	5431.2	
645.23	3553.2	
645.42	3834.5	
645.6	5108.3	
645.79	6218.3	
645.98	3858.4	
646.17	3050.8	
646.36	4912.4	
646.54	5504.3	
646.73	4727.4	
646.92	3665.2	
647.11	5194.3	
647.29	6262.7	
647.48	3657	
647.67	3513.6	
647.86	6484.6	
648.05	6369.2	
648.23	3990.1	
648.42	5292.6	
648.61	5842.2	
648.8	5569.8	
648.98	3642	
649.17	3953.3	
649.36	5190.9	
649.55	4712.4	
649.73	3759.4	
649.92	4393.6	
650.11	5016.8	
650.3	5427.1	
650.48	3790.8	
650.67	3707.5	
650.86	5730.9	
651.05	4683	
651.23	3818.1	
651.42	3772.4	
651.61	5164.3	
651.79	5337	
651.98	3975.8	
652.17	3665.2	
652.36	5691.3	
652.54	4781.3	
652.73	3700	
652.92	3601	
653.11	5689.9	
653.29	5772.5	
653.48	3153.9	
653.67	4035.9	
653.85	5500.8	
654.04	6596.5	
654.23	4292.5	
654.42	3887.7	
654.6	5195	
654.79	5862	
654.98	3519.1	
655.16	3984.7	
655.35	4909	
655.54	4820.9	
655.73	3594.9	
655.91	3510.2	
656.1	5918.6	
656.29	4822.3	
656.47	3126.6	
656.66	4706.9	
656.85	5062.6	
657.03	5032.5	
657.22	3605.1	
657.41	3596.9	
657.59	5059.2	
657.78	4913.1	
657.97	3296.5	
658.16	3892.5	
658.34	5674.2	
658.53	6064	
658.72	4759.5	
658.9	5393.7	
659.09	5126.7	
659.28	5193.6	
659.46	3670.6	
659.65	3603.1	
659.84	4891.2	
660.02	5486.5	
660.21	3524.6	
660.4	3476.1	
660.58	5874.3	
660.77	5216.9	
660.96	4078.9	
661.14	3182.5	
661.33	6364.4	
661.52	6217	
661.7	3108.1	
661.89	6685.9	
662.08	4937.7	
662.26	4551.3	
662.45	3426.9	
662.64	3604.4	
662.82	5553.4	
663.01	4820.2	
663.2	3535.5	
663.38	4264.6	
663.57	5534.3	
663.75	5380.7	
663.94	3874.1	
664.13	5117.9	
664.31	4941.7	
664.5	5608	
664.69	4028.4	
664.87	4635.9	
665.06	4701.5	
665.25	5431.2	
665.43	4848.2	
665.62	4920.6	
665.8	5701.5	
665.99	5020.9	
666.18	3836.5	
666.36	4011.3	
666.55	5663.3	
666.74	5576.6	
666.92	3561.4	
667.11	5134.9	
667.29	5101.5	
667.48	5644.2	
667.67	4764.9	
667.85	3779.9	
668.04	5092.6	
668.22	5093.3	
668.41	3906.2	
668.6	4100.7	
668.78	4923.3	
668.97	5134.9	
669.15	4349.9	
669.34	3353.2	
669.53	4920.6	
669.71	5271.5	
669.9	3592.1	
670.08	4139.6	
670.27	4913.1	
670.46	5584.1	
670.64	4374.5	
670.83	4583.4	
671.01	4884.4	
671.2	5468.8	
671.38	3573.7	
671.57	3558	
671.76	6023.8	
671.94	6574.7	
672.13	3405.8	
672.31	4541	
672.5	5614.2	
672.69	4962.2	
672.87	3593.5	
673.06	3844	
673.24	5445.5	
673.43	5046.2	
673.61	4330.8	
673.8	3886.4	
673.98	5640.8	
674.17	5772.5	
674.36	4412	
674.54	4302.1	
674.73	5413.5	
674.91	5684.5	
675.1	3961.5	
675.28	3690.4	
675.47	5187.5	
675.65	5738.4	
675.84	3858.4	
676.03	4217.5	
676.21	5019.6	
676.4	4569	
676.58	4698.7	
676.77	4399	
676.95	6403.3	
677.14	4962.2	
677.32	3578.5	
677.51	3382.6	
677.69	5711.1	
677.88	4690.5	
678.06	3463.1	
678.25	3592.1	
678.44	5218.2	
678.62	5005.9	
678.81	3315	
678.99	4177.2	
679.18	6058.6	
679.36	5559.6	
679.55	3775.8	
679.73	4377.2	
679.92	5485.1	
680.1	4990.2	
680.29	4978.6	
680.47	3916.4	
680.66	5009.3	
680.84	5739.1	
681.03	3276.1	
681.21	4181.3	
681.4	4969.7	
681.58	4882.4	
681.77	3607.8	
681.95	3574.4	
682.14	5830.6	
682.32	6146.6	
682.51	4510.3	
682.69	3444	
682.88	4977.2	
683.06	5582.1	
683.25	4193.6	
683.43	4649.6	
683.62	5305.6	
683.8	5676.3	
683.99	4803.9	
684.17	4138.9	
684.36	6490	
684.54	5249.6	
684.73	3479.5	
684.91	3741.6	
685.1	5668.1	
685.28	5174.5	
685.46	4299.4	
685.65	4442.7	
685.83	6014.2	
686.02	5354.1	
686.2	3799.7	
686.39	3945.1	
686.57	5203.2	
686.76	6518	
686.94	3835.2	
687.13	3999.7	
687.31	5783.5	
687.5	5322	
687.68	3401.7	
687.86	4644.8	
688.05	6939.9	
688.23	4807.9	
688.42	4612	
688.6	3817.4	
688.79	5127.4	
688.97	5137	
689.16	4143.7	
689.34	3264.5	
689.52	5847.6	
689.71	6085.2	
689.89	4398.4	
690.08	3718.4	
690.26	5423	
690.45	5218.2	
690.63	4610.7	
690.81	3910.9	
691	5178.6	
691.18	5064.6	
691.37	4113.7	
691.55	6211.5	
691.74	5098.8	
691.92	7072.3	
692.1	4162.8	
692.29	3601.7	
692.47	5270.8	
692.66	4659.1	
692.84	3743	
693.02	4254.3	
693.21	4702.1	
693.39	5279	
693.58	4330.1	
693.76	3790.8	
693.94	6320	
694.13	6042.9	
694.31	3684.3	
694.5	4688.5	
694.68	4959.5	
694.86	5198.4	
695.05	4009.9	
695.23	4107.5	
695.42	5592.3	
695.6	7802.8	
695.78	4552.6	
695.97	3781.9	
696.15	5596.4	
696.34	5053	
696.52	3493.8	
696.7	4362.2	
696.89	5409.4	
697.07	4937	
697.25	4302.1	
697.44	5712.5	
697.62	5416.2	
697.81	5778	
697.99	4044.7	
698.17	4462.5	
698.36	4930.8	
698.54	5482.4	
698.72	4293.9	
698.91	3417.4	
699.09	5088.5	
699.28	4984.1	
699.46	4058.4	
699.64	3924.6	
699.83	4928.8	
700.01	6122.7	
700.19	4671.4	
700.38	3150.5	
700.56	6068.8	
700.74	4986.1	
700.93	3511.6	
701.11	4284.4	
701.29	5545.9	
701.48	6462.7	
701.66	3688.4	
701.84	3685	
702.03	5023	
702.21	5653.1	
702.39	3328.6	
702.58	3840.6	
702.76	5400.5	
702.94	5514.5	
703.13	3312.9	
703.31	5615.5	
703.49	4799.1	
703.68	5974.6	
703.86	3439.9	
704.04	4450.9	
704.23	5242.8	
704.41	5662.6	
704.59	3639.2	
704.78	4825.7	
704.96	6314.6	
705.14	5640.1	
705.33	3412.6	
705.51	4272.1	
705.69	5049.6	
705.87	5950.7	
706.06	4423.6	
706.24	3392.1	
706.42	5367.7	
706.61	5636.7	
706.79	4574.5	
706.97	3357.3	
707.16	4890.5	
707.34	5480.4	
707.52	4463.2	
707.7	3595.6	
707.89	5010.7	
708.07	4721.3	
708.25	4453.6	
708.44	4567	
708.62	4969.7	
708.8	6119.3	
708.98	4738.3	
709.17	3726.6	
709.35	5356.1	
709.53	5379.3	
709.72	3467.2	
709.9	3976.5	
710.08	5579.3	
710.26	5669.5	
710.45	5073.5	
710.63	3781.2	
710.81	5283.1	
710.99	5305.6	
711.18	4405.9	
711.36	3932.8	
711.54	5126.7	
711.72	5871.5	
711.91	4055.7	
712.09	3544.4	
712.27	5437.4	
712.45	6075	
712.64	4407.9	
712.82	3400.3	
713	4986.8	
713.18	5200.5	
713.37	3638.6	
713.55	4827.7	
713.73	6105	
713.91	4888.5	
714.1	4197.7	
714.28	3738.9	
714.46	5906.3	
714.64	5291.3	
714.83	3362.8	
715.01	4195.6	
715.19	5413.5	
715.37	4918.5	
715.55	3951.2	
715.74	4245.4	
715.92	6371.2	
716.1	4545.8	
716.28	5320.6	
716.47	4431.8	
716.65	5171.8	
716.83	5347.9	
717.01	4280.9	
717.19	4345.1	
717.38	7289.4	
717.56	4930.1	
717.74	4488.5	
717.92	3654.9	
718.1	5987.6	
718.29	5270.8	
718.47	3237.2	
718.65	3819.5	
718.83	5823.7	
719.01	5640.1	
719.2	2987.3	
719.38	4057.7	
719.56	5420.3	
719.74	6942.6	
719.92	3675.4	
720.11	4706.9	
720.29	5575.9	
720.47	4702.8	
720.65	3351.2	
720.83	4181.3	
721.02	5180	
721.2	4937.7	
721.38	4353.3	
721.56	3639.2	
721.74	4582	
721.92	4724	
722.11	4898.7	
722.29	4585.4	
722.47	5911.8	
722.65	5162.2	
722.83	3645.4	
723.01	4506.9	
723.2	5227.1	
723.38	5487.9	
723.56	3173.7	
723.74	4241.3	
723.92	4769.7	
724.1	5894.1	
724.29	3626.3	
724.47	4782	
724.65	4835.9	
724.83	4759.5	
725.01	3520.5	
725.19	4404.5	
725.37	4776.5	
725.56	4846.2	
725.74	3418.7	
725.92	3595.6	
726.1	4700.8	
726.28	5038.7	
726.46	4057.7	
726.64	3784.6	
726.83	5028.4	
727.01	5233.9	
727.19	3403	
727.37	4170.3	
727.55	5097.4	
727.73	5614.8	
727.91	3365.5	
728.09	3253.5	
728.28	5627.8	
728.46	6146	
728.64	4265.2	
728.82	4194.2	
729	6624.5	
729.18	5898.2	
729.36	3354.6	
729.54	5657.2	
729.72	6849.8	
729.91	5128.8	
730.09	5167.7	
730.27	3932.8	
730.45	4997	
730.63	5639.4	
730.81	4518.5	
730.99	3573	
731.17	6114.6	
731.35	4810	
731.53	4078.9	
731.71	3691.8	
731.9	5838.1	
732.08	6076.3	
732.26	4044.1	
732.44	3624.2	
732.62	6047	
732.8	5515.2	
732.98	4377.9	
733.16	3500	
733.34	5599.8	
733.52	4493.2	
733.7	4020.2	
733.88	4287.8	
734.07	5492.7	
734.25	5244.8	
734.43	3469.9	
734.61	5029.8	
734.79	6664.1	
734.97	5119.9	
735.15	3631.7	
735.33	3954.6	
735.51	5421.7	
735.69	5089.2	
735.87	5472.2	
736.05	4135.5	
736.23	5305.6	
736.41	5068.7	
736.59	3992.2	
736.77	4045.4	
736.95	5714.5	
737.13	5091.9	
737.32	3622.9	
737.5	3878.9	
737.68	6180.1	
737.86	5094	
738.04	3453.6	
738.22	5400.5	
738.4	4896	
738.58	5271.5	
738.76	4125.3	
738.94	3117	
739.12	5055.1	
739.3	4911	
739.48	4698	
739.66	4420.2	
739.84	5326.1	
740.02	5311.7	
740.2	3194.8	
740.38	3500.7	
740.56	5710.4	
740.74	4575.2	
740.92	4164.2	
741.1	4158.1	
741.28	5115.1	
741.46	4981.3	
741.64	3765.5	
741.82	4301.4	
742	5178.6	
742.18	5102.2	
742.36	3977.2	
742.54	3576.4	
742.72	5713.2	
742.9	4581.3	
743.08	4399.7	
743.26	3261.7	
743.44	5961.6	
743.62	5806.7	
743.8	4552	
743.98	3656.3	
744.16	5499.5	
744.34	5205.3	
744.52	4433.9	
744.7	4466.6	
744.88	5653.1	
745.06	5261.9	
745.24	4539	
745.42	4651.6	
745.6	5801.9	
745.78	5586.9	
745.96	3414	
746.14	3731.4	
746.32	6572.6	
746.5	5813.5	
746.68	4292.5	
746.86	3750.5	
747.03	6227.9	
747.21	4675.5	
747.39	4360.1	
747.57	3814	
747.75	5473.5	
747.93	5837.4	
748.11	3803.1	
748.29	3724.6	
748.47	7014.3	
748.65	5211.4	
748.83	4509.6	
749.01	4265.9	
749.19	5667.4	
749.37	4861.9	
749.55	4128	
749.73	4181.3	
749.91	5330.2	
750.09	5151.3	
750.26	4229.7	
750.44	3628.3	
750.62	5382.7	
750.8	5350	
750.98	3565.5	
751.16	3913.7	
751.34	5479.7	
751.52	4825.7	
751.7	4638.6	
751.88	3521.8	
752.06	5943.2	
752.24	5702.2	
752.42	3497.9	
752.59	3842	
752.77	5393.7	
752.95	6564.4	
753.13	4553.3	
753.31	3960.8	
753.49	5079.6	
753.67	5500.2	
753.85	4326.7	
754.03	3901.4	
754.21	5805.3	
754.38	6168.5	
754.56	4139.6	
754.74	3285.6	
754.92	5206.6	
755.1	5978	
755.28	3401.7	
755.46	3479.5	
755.64	6847.7	
755.82	7086	
755.99	3911.6	
756.17	4087.1	
756.35	4769.7	
756.53	6322.8	
756.71	3069.9	
756.89	3992.9	
757.07	5828.5	
757.25	4943.1	
757.42	4457.7	
757.6	5283.8	
757.78	5797.8	
757.96	4797	
758.14	4035.9	
758.32	3627	
758.5	4471.4	
758.67	5285.8	
758.85	3899.3	
759.03	4001.7	
759.21	5435.3	
759.39	4902.8	
759.57	3511.6	
759.75	4605.2	
759.92	6012.2	
760.1	5240.1	
760.28	4966.3	
760.46	5141.8	
760.64	5011.4	
760.82	4860.5	
760.99	4689.8	
761.17	3882.3	
761.35	5829.9	
761.53	4767.7	
761.71	3948.5	
761.89	4635.2	
762.06	5664.7	
762.24	5108.3	
762.42	4011.3	
762.6	3720.5	
762.78	5119.9	
762.96	5746.6	
763.13	4337.6	
763.31	4059.1	
763.49	5903.6	
763.67	5042.1	
763.85	4911	
764.02	5429.8	
764.2	6121.4	
764.38	5267.4	
764.56	3910.3	
764.74	4737	
764.91	6217.6	
765.09	5178.6	
765.27	3610.6	
765.45	3437.9	
765.63	6249	
765.8	6154.8	
765.98	3224.2	
766.16	3531.4	
766.34	4833.9	
766.52	4638.6	
766.69	4477.5	
766.87	3394.8	
767.05	5236	
767.23	5926.1	
767.41	3707.5	
767.58	3961.5	
767.76	5805.3	
767.94	5831.9	
768.12	3796.9	
768.29	4505.5	
768.47	5300.1	
768.65	5997.8	
768.83	3457.7	
769	4568.3	
769.18	4943.1	
769.36	5564.3	
769.54	4632.5	
769.72	3534.8	
769.89	5900.2	
770.07	6009.4	
770.25	3856.3	
770.43	5141.1	
770.6	6646.3	
770.78	7110.5	
770.96	4073.4	
771.14	3992.9	
771.31	5788.2	
771.49	5188.2	
771.67	3273.3	
771.85	3531.4	
772.02	4532.2	
772.2	5197.7	
772.38	4255.7	
772.55	3766.9	
772.73	5526.1	
772.91	5218.9	
773.09	4121.2	
773.26	4187.4	
773.44	5516.5	
773.62	5166.3	
773.8	3639.9	
773.97	3424.9	
774.15	5587.5	
774.33	5172.5	
774.5	3620.1	
774.68	3965.6	
774.86	5685.8	
775.04	5231.2	
775.21	3644.7	
775.39	3710.9	
775.57	5529.5	
775.74	5941.2	
775.92	3553.9	
776.1	3486.3	
776.27	5451	
776.45	6718.7	
776.63	3775.8	
776.81	3323.9	
776.98	5188.2	
777.16	6321.4	
777.34	3893.9	
777.51	4179.2	
777.69	5147.9	
777.87	4935.6	
778.04	3887.7	
778.22	4603.2	
778.4	5008	
778.57	5644.9	
778.75	3266.5	
778.93	3522.5	
779.1	4860.5	
779.28	4712.4	
779.46	3276.7	
779.64	3744.4	
779.81	5799.2	
779.99	6690.7	
780.17	4506.2	
780.34	4719.2	
780.52	5280.3	
780.69	5515.9	
780.87	4029.7	
781.05	3668.6	
781.22	5356.1	
781.4	5410.7	
781.58	3797.6	
781.75	2965.5	
781.93	5404.6	
782.11	4844.1	
782.28	4741.7	
782.46	3829.7	
782.64	4689.2	
782.81	5573.9	
782.99	3910.9	
783.17	3853.6	
783.34	5502.2	
783.52	4749.2	
783.69	4117.1	
783.87	4920.6	
784.05	4827.1	
784.22	4912.4	
784.4	4892.6	
784.58	4202.4	
784.75	5701.5	
784.93	4924	
785.1	3889.1	
785.28	4456.4	
785.46	5547.9	
785.63	4875.5	
785.81	3852.2	
785.99	3688.4	
786.16	5053.7	
786.34	5451.7	
786.51	3742.3	
786.69	4130.1	
786.87	4644.8	
787.04	5128.1	
787.22	3586.7	
787.39	4590.9	
787.57	4866	
787.75	6045.6	
787.92	4726	
788.1	4678.9	
788.27	4950.6	
788.45	4678.2	
788.63	4384	
788.8	3187.3	
788.98	5400.5	
789.15	4668.7	
789.33	3275.4	
789.5	3951.2	
789.68	5842.9	
789.86	5922.7	
790.03	4388.8	
790.21	3766.9	
790.38	5788.9	
790.56	5094	
790.73	3628.3	
790.91	3682.2	
791.09	4946.5	
791.26	5711.8	
791.44	3852.9	
791.61	3387.3	
791.79	4924.7	
791.96	4999.8	
792.14	3468.6	
792.32	3076	
792.49	4965	
792.67	5027.1	
792.84	3528	
793.02	3324.5	
793.19	5330.2	
793.37	6175.3	
793.54	3054.9	
793.72	3424.2	
793.89	6286.6	
794.07	4941.7	
794.25	4062.5	
794.42	3170.3	
794.6	5996.5	
794.77	5636	
794.95	4298.7	
795.12	3805.1	
795.3	4954.7	
795.47	5536.3	
795.65	4141	
795.82	3964.9	
796	4724	
796.17	6677.1	
796.35	3837.2	
796.52	4597.7	
796.7	5534.3	
796.87	5579.3	
797.05	4830.5	
797.22	4788.8	
797.4	5543.2	
797.57	6573.3	
797.75	3930.1	
797.92	3704.8	
798.1	5839.4	
798.27	4934.9	
798.45	3188.7	
798.62	3420.8	
798.8	5244.8	
798.97	5763.7	
799.15	4228.4	
799.32	4002.4	
799.5	4517.1	
799.67	5309	
799.85	4319.8	
800.02	3119.7	
800.2	4919.2	
800.37	5249.6	
800.55	4528.1	
800.72	3770.3	
800.9	5762.3	
801.07	6162.3	
801.25	5090.6	
801.42	4126	
801.6	5736.4	
801.77	5447.6	
801.95	3809.2	
802.12	3632.4	
802.29	5499.5	
802.47	5394.3	
802.64	4086.4	
802.82	3163.4	
802.99	4926.7	
803.17	5939.1	
803.34	3919.1	
803.52	3597.6	
803.69	6612.2	
803.87	4703.5	
804.04	3930.1	
804.21	4074.8	
804.39	6100.2	
804.56	5158.8	
804.74	3393.5	
804.91	4164.9	
805.09	4953.4	
805.26	5024.3	
805.44	3433.8	
805.61	3837.9	
805.78	5591.6	
805.96	5657.2	
806.13	4153.3	
806.31	4521.2	
806.48	4528.7	
806.66	5045.5	
806.83	4135.5	
807	4037.9	
807.18	4956.1	
807.35	5382.1	
807.53	4032.5	
807.7	3231.7	
807.87	6124.8	
808.05	4959.5	
808.22	4487.8	
808.4	3220.8	
808.57	5034.6	
808.74	4607.2	
808.92	3756	
809.09	4729.4	
809.27	4842.8	
809.44	5538.4	
809.61	3267.9	
809.79	3648.1	
809.96	6077.7	
810.14	5776	
810.31	3183.9	
810.48	3921.2	
810.66	5098.1	
810.83	5829.2	
811.01	3712.3	
811.18	4195.6	
811.35	5750.7	
811.53	4469.4	
811.7	4483	
811.87	4227	
812.05	5014.1	
812.22	4940.4	
812.39	3594.2	
812.57	3396.2	
812.74	5113.8	
812.92	6735.1	
813.09	3907.5	
813.26	4284.4	
813.44	6411.5	
813.61	4935.6	
813.78	3254.2	
813.96	4365.6	
814.13	5041.4	
814.3	4695.3	
814.48	4739	
814.65	3862.5	
814.82	6260	
815	4803.9	
815.17	3984	
815.34	4911	
815.52	4919.2	
815.69	4951.3	
815.87	3974.4	
816.04	3416	
816.21	5027.1	
816.38	4404.5	
816.56	3850.9	
816.73	3607.8	
816.9	6345.3	
817.08	5768.4	
817.25	3611.3	
817.42	4524.6	
817.6	4603.8	
817.77	5026.4	
817.94	4124.6	
818.12	3620.8	
818.29	4734.2	
818.46	7493.5	
818.64	3743	
818.81	3534.1	
818.98	4683	
819.16	6881.9	
819.33	4333.5	
819.5	3987.4	
819.67	5366.4	
819.85	6011.5	
820.02	3882.9	
820.19	4209.3	
820.37	5213.4	
820.54	4870.1	
820.71	4115.1	
820.88	5041.4	
821.06	5242.1	
821.23	4779.3	
821.4	4129.4	
821.58	4094.6	
821.75	5722.7	
821.92	5179.3	
822.09	3251.5	
822.27	3328.6	
822.44	5016.2	
822.61	4893.3	
822.79	3300	
822.96	6353.5	
823.13	5515.9	
823.3	4732.9	
823.48	3831.1	
823.65	3393.5	
823.82	5744.6	
823.99	4597	
824.17	4900.1	
824.34	3495.2	
824.51	6617.7	
824.68	5087.8	
824.86	3657	
825.03	4063.2	
825.2	5069.4	
825.37	6140.5	
825.55	3560.7	
825.72	3981.3	
825.89	6718.7	
826.06	6178	
826.24	3952.6	
826.41	3971	
826.58	6124.1	
826.75	5338.4	
826.92	3082.9	
827.1	3429.7	
827.27	8383.7	
827.44	6708.5	
827.61	3768.9	
827.79	4508.3	
827.96	4775.2	
828.13	5122.7	
828.3	3873.4	
828.47	3219.4	
828.65	5246.9	
828.82	5175.9	
828.99	5089.2	
829.16	4427	
829.34	5656.5	
829.51	5410.7	
829.68	4035.2	
829.85	4257.7	
830.02	5988.9	
830.2	5702.2	
830.37	3173.7	
830.54	4829.1	
830.71	6421.7	
830.88	5013.4	
831.05	3100.6	
831.23	3717.1	
831.4	6177.4	
831.57	6888.7	
831.74	3755.3	
831.91	3250.1	
832.09	5317.2	
832.26	5628.5	
832.43	3869.3	
832.6	4392.2	
832.77	5276.3	
832.94	6058.6	
833.12	3057.6	
833.29	3809.2	
833.46	4925.4	
833.63	7178.8	
833.8	4169	
833.97	3920.5	
834.15	5635.3	
834.32	5446.9	
834.49	4061.8	
834.66	4130.1	
834.83	5865.4	
835	4768.4	
835.17	3700	
835.35	3742.3	
835.52	5558.2	
835.69	5412.8	
835.86	3948.5	
836.03	3205.1	
836.2	5567.1	
836.37	5257.8	
836.55	3919.1	
836.72	3682.2	
836.89	5216.9	
837.06	5716.6	
837.23	3991.5	
837.4	4364.2	
837.57	6515.3	
837.75	7200.7	
837.92	3516.4	
838.09	3743.7	
838.26	5212.8	
838.43	5979.4	
838.6	4093.9	
838.77	3615.3	
838.94	6796.5	
839.11	6506.4	
839.29	3881.6	
839.46	3078.8	
839.63	5621	
839.8	5376.6	
839.97	3734.1	
840.14	3702.7	
840.31	5389.6	
840.48	5630.5	
840.65	3134.1	
840.82	3812.6	
841	5603.2	
841.17	5586.2	
841.34	3469.3	
841.51	3512.9	
841.68	5561.6	
841.85	5339.7	
842.02	3544.4	
842.19	2974.3	
842.36	5381.4	
842.53	5356.1	
842.7	3489.7	
842.87	4326.7	
843.05	7104.4	
843.22	5298.8	
843.39	3278.1	
843.56	3542.3	
843.73	5102.9	
843.9	5665.4	
844.07	5668.1	
844.24	4701.5	
844.41	8318.2	
844.58	4846.2	
844.75	3362.8	
844.92	3670.6	
845.09	5644.2	
845.26	5633.3	
845.43	3357.3	
845.6	3587.4	
845.77	5597.8	
845.94	5375.9	
846.12	3821.5	
846.29	4030.4	
846.46	5791	
846.63	5630.5	
846.8	3445.4	
846.97	4126.7	
847.14	6110.5	
847.31	5565.7	
847.48	3899.3	
847.65	4293.2	
847.82	5887.2	
847.99	5902.9	
848.16	4613.4	
848.33	4289.8	
848.5	5169.1	
848.67	6052.4	
848.84	3421.5	
849.01	3589.4	
849.18	5018.2	
849.35	4739.7	
849.52	4330.1	
849.69	3351.8	
849.86	5781.4	
850.03	6008.7	
850.2	3414.6	
850.37	4289.1	
850.54	5984.8	
850.71	5273.5	
850.88	4124.6	
851.05	3370.3	
851.22	5571.2	
851.39	6154.1	
851.56	3256.3	
851.73	3986	
851.9	4950.6	
852.07	5808	
852.24	3818.1	
852.41	3418.1	
852.58	5441.5	
852.75	5014.8	
852.92	3913.7	
853.09	3317	
853.26	5280.3	
853.43	6085.2	
853.6	3417.4	
853.77	2962	
853.94	6129.6	
854.11	4924.7	
854.28	5106.3	
854.44	3670	
854.61	6565.8	
854.78	5964.4	
854.95	3419.4	
855.12	4303.5	
855.29	4504.8	
855.46	6229.9	
855.63	3445.4	
855.8	4789.5	
855.97	5165.7	
856.14	5928.9	
856.31	4847.5	
856.48	3713	
856.65	5162.2	
856.82	4885.8	
856.99	3239.2	
857.16	3677.5	
857.33	6889.4	
857.49	5241.4	
857.66	3751.9	
857.83	3955.3	
858	5227.8	
858.17	5520	
858.34	3219.4	
858.51	3460.4	
858.68	6333.7	
858.85	6340.5	
859.02	4003.1	
859.19	4238.6	
859.36	4920.6	
859.52	4990.9	
859.69	3494.5	
859.86	4044.1	
860.03	4996.4	
860.2	6195.1	
860.37	3091.8	
860.54	3455.6	
860.71	5758.9	
860.88	6232.7	
861.05	3901.4	
861.21	4353.3	
861.38	6290.7	
861.55	4829.1	
861.72	3137.5	
861.89	3891.8	
862.06	5959.6	
862.23	6406	
862.4	3287.7	
862.56	3601	
862.73	5756.2	
862.9	5415.5	
863.07	4029	
863.24	3104	
863.41	4817.5	
863.58	4971.1	
863.75	3582.6	
863.91	3994.2	
864.08	6255.9	
864.25	5716.6	
864.42	4311	
864.59	4855.7	
864.76	6546.7	
864.93	4954.7	
865.09	3348.4	
865.26	3658.4	
865.43	6136.4	
865.6	6477	
865.77	3028.3	
865.94	3409.9	
866.1	6212.2	
866.27	5906.3	
866.44	5157.5	
866.61	3282.2	
866.78	5325.4	
866.95	5752.1	
867.11	3310.2	
867.28	3072	
867.45	5939.8	
867.62	4980	
867.79	3921.2	
867.96	3373	
868.12	4985.4	
868.29	5896.1	
868.46	2980.5	
868.63	4601.1	
868.8	6010.8	
868.97	5829.2	
869.13	3588	
869.3	3568.9	
869.47	5725.4	
869.64	5944.6	
869.81	3454.2	
869.97	3470.6	
870.14	5679	
870.31	6297.5	
870.48	3357.3	
870.65	4344.4	
870.81	5261.2	
870.98	5185.5	
871.15	3892.5	
871.32	3556	
871.48	5708.4	
871.65	6316.6	
871.82	3407.8	
871.99	3776.5	
872.16	6765.1	
872.32	6144.6	
872.49	3526.6	
872.66	3528	
872.83	5863.3	
872.99	5156.1	
873.16	3984	
873.33	3424.9	
873.5	5504.9	
873.67	5460.6	
873.83	3616.7	
874	4586.1	
874.17	5586.2	
874.34	6677.1	
874.5	4450.2	
874.67	4278.9	
874.84	6229.9	
875.01	4922	
875.17	4886.5	
875.34	3444	
875.51	5517.2	
875.68	6673.6	
875.84	4172.4	
876.01	5085.8	
876.18	5763	
876.34	5775.3	
876.51	3488.4	
876.68	3346.4	
876.85	5324.7	
877.01	6076.3	
877.18	4902.2	
877.35	3444.7	
877.52	5448.3	
877.68	4867.3	
877.85	3373	
878.02	3392.8	
878.18	5380	
878.35	5122	
878.52	2733.4	
878.69	3829.7	
878.85	5888.6	
879.02	5779.4	
879.19	4868	
879.35	3719.8	
879.52	5789.6	
879.69	6032	
879.86	2962.7	
880.02	3885.7	
880.19	5282.4	
880.36	6610.2	
880.52	3968.3	
880.69	4117.8	
880.86	5885.9	
881.02	5925.5	
881.19	3744.4	
881.36	3754.6	
881.52	5765.7	
881.69	5140.4	
881.86	3669.3	
882.02	3604.4	
882.19	6062.7	
882.36	7102.4	
882.52	3465.8	
882.69	4882.4	
882.86	5595.1	
883.02	5479	
883.19	4156	
883.36	3986.7	
883.52	5961	
883.69	6769.2	
883.86	3506.1	
884.02	3107.5	
884.19	5922	
884.36	5393	
884.52	3846.1	
884.69	3665.2	
884.86	5124.7	
885.02	6479.1	
885.19	3814	
885.36	3940.3	
885.52	5494.7	
885.69	5611.4	
885.86	4924	
886.02	4475.5	
886.19	5855.8	
886.35	5343.8	
886.52	3830.4	
886.69	4831.8	
886.85	4902.2	
887.02	6238.8	
887.19	6238.8	
887.35	6238.8	
887.52	6238.8	
887.68	6238.8	
887.85	6238.8	
888.02	6238.8	
888.18	6238.8	
888.35	6238.8	
888.51	6238.8	
888.68	6238.8	
888.85	6238.8	
889.01	6238.8	
889.18	6238.8	
889.35	6238.8	
889.51	6238.8	
889.68	6238.8	
889.84	6238.8	
890.01	6238.8	
890.17	6238.8	
890.34	6238.8	
890.51	6238.8	
890.67	6238.8	
890.84	6238.8	
891	6238.8	
891.17	6238.8	
891.34	6238.8	
891.5	6238.8	
891.67	6238.8	
891.83	6238.8	
892	6238.8	
892.16	6238.8	
892.33	6238.8	
892.5	6238.8	
892.66	6238.8	
892.83	6238.8	
892.99	6238.8	
893.16	6238.8	
893.32	6238.8	
893.49	6238.8	
893.65	6238.8	
893.82	6238.8	
893.99	6238.8	
894.15	6238.8	
894.32	6238.8	
894.48	6238.8	
894.65	6238.8	
894.81	6238.8	
894.98	6238.8	
895.14	6238.8	
895.31	6238.8	
895.47	6238.8	
895.64	6238.8	
895.81	6238.8	
895.97	6238.8	
896.14	6238.8	
896.3	6238.8	
896.47	6238.8	
896.63	6238.8	
896.8	6238.8	
896.96	6238.8	
897.13	6238.8	
897.29	6238.8	
897.46	6238.8	
897.62	6238.8	
897.79	6238.8	
897.95	6238.8	
898.12	6238.8	
898.28	6238.8	
898.45	6238.8	
898.61	6238.8	
898.78	6238.8	
898.94	6238.8	
899.11	6238.8	
899.27	6238.8	
899.44	6238.8	
899.6	6238.8	
899.77	6238.8	
899.93	6238.8	
900.1	6238.8	
900.26	6238.8	
900.43	6238.8	
900.59	6238.8	
900.76	6238.8	
900.92	6238.8	
901.09	6238.8	
901.25	6238.8	
901.42	6238.8	
901.58	6238.8	
901.75	6238.8	
901.91	6238.8	
902.07	6238.8	
902.24	6238.8	
902.4	6238.8	
902.57	6238.8	
902.73	6238.8	
902.9	6238.8	
903.06	6238.8	
903.23	6238.8	
903.39	6238.8	
903.56	6238.8	
903.72	6238.8	
903.88	6238.8	
904.05	6238.8	
904.21	6238.8	
904.38	6238.8	
904.54	6238.8	
904.71	6238.8	
904.87	6238.8	
905.03	6238.8	
905.2	6238.8	
905.36	6238.8	
905.53	6238.8	
905.69	6238.8	
905.86	6238.8	
906.02	6238.8	
906.18	6238.8	
906.35	6238.8	
906.51	6238.8	
906.68	6238.8	
906.84	6238.8	
907.01	6238.8	
907.17	6238.8	
907.33	6238.8	
907.5	6238.8	
907.66	6238.8	
907.83	6238.8	
907.99	6238.8	
908.15	6238.8	
908.32	6238.8	
908.48	6238.8	
908.65	6238.8	
908.81	6238.8	
908.97	6238.8	
909.14	6238.8	
909.3	6238.8	
909.47	6238.8	
909.63	6238.8	
909.79	6238.8	
909.96	6238.8	
910.12	6238.8	
910.28	6238.8	
910.45	6238.8	
910.61	6238.8	
910.78	6238.8	
910.94	6238.8	
911.1	6238.8	
911.27	6238.8	
911.43	6238.8	
911.59	6238.8	
911.76	6238.8	
911.92	6238.8	
912.08	6238.8	
912.25	6238.8	
912.41	6238.8	
912.57	6238.8	
912.74	6238.8	
912.9	6238.8	
913.07	6238.8	
913.23	6238.8	
913.39	6238.8	
913.56	6238.8	
913.72	6238.8	
913.88	6238.8	
914.05	6238.8	
914.21	6238.8	
914.37	6238.8	
914.54	6238.8	
914.7	6238.8	
914.86	6238.8	
915.03	6238.8	
915.19	6238.8	
